time,integrated_power,mean_periodic_power_dep,periodic_power,voltage
0,0,0,0,0.5
1e-11,-0.024047384862917,-4.8912380811173e-11,-1.2023692431458e-13,0.5
2.2e-11,-0.044618228413493,-2.1651140969623e-10,-5.3223060397304e-13,0.5
3.64e-11,-0.062453181158916,-5.3011928547744e-10,-1.3031447528944e-12,0.5
5.368e-11,-0.077126512103651,-1.0207072915314e-09,-2.509113302683e-12,0.5
7.4416e-11,-0.086775586596601,-1.7119975665845e-09,-4.2084502620072e-12,0.5
9.92992e-11,-0.08768583876481,-2.5949892135296e-09,-6.3790295317837e-12,0.5
1.2915904e-10,-0.073356349753115,-3.5730775695488e-09,-8.7833765229813e-12,0.5
1.64990848e-10,-0.032927771585546,-4.3476964129794e-09,-1.0687552637609e-11,0.5
2.079890176e-10,0.051356608277412,-4.1865209826228e-09,-1.0291349514805e-11,0.5
2.5958682112e-10,0.20819027698342,-1.4625781773938e-09,-3.5953249198471e-12,0.5
3.21504185344e-10,0.48359286869845,7.2497331442317e-09,1.7821369577757e-11,0.5
3.958050224128e-10,0.95098757385329,2.8930246483318e-08,7.1116633439819e-11,0.5
4.8496602689536e-10,1.7270641733595,7.7497647715921e-08,1.905055253587e-10,0.5
5.9195923227443e-10,2.9967049525853,1.802982858479e-07,4.4321112548647e-10,0.5
7.2035107872932e-10,5.0520753481471,3.9049139115141e-07,9.5991000774684e-10,0.5
8.7442129447518e-10,8.3537837393653,8.1060261977211e-07,1.9926318086827e-09,0.5
1.0593055533702e-09,13.626274401956,1.6371727787415e-06,4.0245151886467e-09,0.5
1.2811666640443e-09,22.005989048322,3.2451338937759e-06,7.9772219611011e-09,0.5
1.5473999968531e-09,35.270126723798,6.3467420903013e-06,1.560162755728e-08,0.5
1.8668799962237e-09,56.186841419859,1.2289820000521e-05,3.0210963619767e-08,0.5
2.2502559954685e-09,89.04462368609,2.3614777689269e-05,5.8050092648153e-08,0.5
2.7103071945622e-09,140.43738150867,4.5088421824969e-05,1.1083682847829e-07,0.5
3.2623686334746e-09,220.39417770259,8.560594382687e-05,2.1043742336989e-07,0.5
3.9248423601695e-09,343.9253847268,0.0001616463999449,3.9736086515461e-07,0.5
4.7198108322034e-09,532.95273756455,0.00030343459972001,7.4590609567357e-07,0.5
5.6737729986441e-09,818.27138778639,0.00056562059527284,1.3904144426569e-06,0.5
6.818527598373e-09,1240.4015689781,0.001044968358736,2.5687521109537e-06,0.5
8.1922331180476e-09,1846.4945367419,0.0019074832556988,4.6889952204985e-06,0.5
9.8406797416571e-09,2677.3861568138,0.0034243135045863,8.4176831479505e-06,0.5
1.1818815689988e-08,3734.7692804762,0.0060042625315458,1.4759740736347e-05,0.5
1.4192578827986e-08,4917.1351565632,0.010181604640979,2.5028526649408e-05,0.5
1.7041094593583e-08,5927.527614355,0.016464873271865,4.0474123087181e-05,0.5
2.04593135123e-08,6212.1994312906,0.02490520943479,6.1222245414922e-05,0.5
2.41593135123e-08,5277.4786800454,0.033552111387819,8.2478149920894e-05,0.5
2.78593135123e-08,3416.4667159143,0.040095000813911,9.8561948903419e-05,0.5
3.15593135123e-08,1397.2604666915,0.043717715616996,0.00010746734419124,0.5
3.52593135123e-08,126.37873112506,0.044864376004489,0.0001102860767072,0.5
3.89593135123e-08,303.7495350921,0.045188081935079,0.0001110818139997,0.5
4.26593135123e-08,2075.1005777929,0.046978356953034,0.00011548268670854,0.5
4.63593135123e-08,4875.0747903054,0.052208919931557,0.00012834051113952,0.5
5.00593135123e-08,7623.6500471983,0.061615210269766,0.0001514631520889,0.5
5.37593135123e-08,9210.6731113514,0.074284385192427,0.00018260664993222,0.5
5.74593135123e-08,9009.3287915635,0.087996394224523,0.00021631365345261,0.5
6.11593135123e-08,7125.7999795839,0.10013936943511,0.00024616364167924,0.5
6.48593135123e-08,4300.0880143935,0.10873826422162,0.00026730153446809,0.5
6.85593135123e-08,1608.2011340634,0.11318472446897,0.00027823186939274,0.5
7.22593135123e-08,122.04248688154,0.11448687121322,0.00028143282009149,0.5
7.59593135123e-08,544.23667195656,0,0,0.5
7.96593135123e-08,2853.5357521982,0.0025570955709704,6.2858789846863e-06,0.5
8.33593135123e-08,6217.0129570921,0.009383409118608,2.3066394096873e-05,0.5
8.70593135123e-08,9313.3922352367,0.021071281458251,5.1797643702682e-05,0.5
9.07593135123e-08,10906.143668811,0.036288099788919,8.9203785125169e-05,0.5
9.44593135123e-08,10383.914947232,0.052310572102181,0.00012859039356485,0.5
9.81593135123e-08,7989.882052843,0.066138324248497,0.00016258191801499,0.5
1.018593135123e-07,4659.3247194726,0.075657864281207,0.00018598295054377,0.5
1.055593135123e-07,1646.8428408064,0.080403759863721,0.00019764936053029,0.5
1.092593135123e-07,129.54744809681,0.081740635667344,0.00020093568256476,0.5
1.129593135123e-07,802.75448132183,0.082442267453386,0.00020266044113418,0.5
1.166593135123e-07,3514.7535884617,0.085691537676544,0.00021064783106328,0.5
1.203593135123e-07,7242.708199964,0.093787388269277,0.00023054913537187,0.5
1.240593135123e-07,10513.455856818,0.10715032221513,0.00026339803887692,0.5
1.277593135123e-07,12033.52470574,0.1241187288469,0.00030510995291765,0.5
1.314593135123e-07,11232.197168524,0.14162804581503,0.00034815153838504,0.5
1.351593135123e-07,8463.7990332827,0.15645085863659,0.00038458913135838,0.5
1.388593135123e-07,4800.8920730314,0.16643359986938,0.00040912880990506,0.5
1.425593135123e-07,1618.0397323332,0.17126435956746,0.00042100383374499,0.5
1.462593135123e-07,156.46801020481,0.17259981860434,0.00042428667306868,0.5
1.499593135123e-07,1085.2608794254,0,0,0.5
1.536593135123e-07,4130.8874513964,0.0039255689108099,9.6498744120204e-06,0.5
1.573593135123e-07,8117.0433601703,0.013143116680979,3.2308546413419e-05,0.5
1.610593135123e-07,11467.029710177,0.027881698392261,6.8539081593562e-05,0.5
1.647593135123e-07,12869.641197508,0.046196990183967,0.00011356192277278,0.5
1.684593135123e-07,11809.580372873,0.064770078753404,0.00015921848267799,0.5
1.721593135123e-07,8738.8532273917,0.080234418912291,0.00019723308483847,0.5
1.758593135123e-07,4836.1442521906,0.090450690515475,0.0002223468301757,0.5
1.795593135123e-07,1564.0282046412,0.095267332303038,0.00023418714922084,0.5
1.832593135123e-07,203.96726219356,0.096597890331468,0.00023745794083448,0.5
1.869593135123e-07,1385.4366925993,0.097794043959766,0.00024039833815085,0.5
1.906593135123e-07,4717.990694625,0.10238736134284,0.00025168967881722,0.5
1.943593135123e-07,8895.1457828993,0.1126323355931,0.00027687398130064,0.5
1.980593135123e-07,12266.29065422,0.12855800942695,0.00031602263870931,0.5
2.017593135123e-07,13525.338492894,0.14796827369048,0.00036373715263147,0.5
2.054593135123e-07,12220.439904468,0.16734403159677,0.00041136684266659,0.5
2.091593135123e-07,8893.0653252444,0.18323363336254,0.00045042682734155,0.5
2.128593135123e-07,4809.5303092214,0.19354593278513,0.00047577662926531,0.5
2.165593135123e-07,1500.5323977301,0.19829475977713,0.00048745024527318,0.5
2.202593135123e-07,271.50599594941,0.19962836043144,0.00049072851630148,0.5
2.239593135123e-07,1702.842963557,0,0,0.5
2.276593135123e-07,5289.7871567844,0.0052625135759665,1.2936365722632e-05,0.5
2.313593135123e-07,9611.7727398137,0.016477129522948,4.0504251531338e-05,0.5
2.350593135123e-07,12964.776741239,0.033467789131399,8.2270868071286e-05,0.5
2.387593135123e-07,14063.103744372,0.053808431427261,0.00013227244696967,0.5
2.424593135123e-07,12523.245349188,0.073816786028091,0.00018145719279275,0.5
2.461593135123e-07,8968.8259587434,0.089991289053014,0.00022121752471242,0.5
2.498593135123e-07,4745.5129748906,0.10031242624769,0.00024658905173965,0.5
2.535593135123e-07,1436.053975304,0.10496454990307,0.00025802495059751,0.5
2.572593135123e-07,357.43489594265,0.10631429375779,0.00026134290500931,0.5
2.609593135123e-07,2032.4002757116,0.10811283591127,0.00026576410007687,0.5
2.646593135123e-07,5845.2756744223,0.11404141727782,0.00028033780058462,0.5
2.683593135123e-07,10275.02870111,0.12617323594476,0.00031016036367936,0.5
2.720593135123e-07,13580.293129472,0.14412627404802,0.00035429270906593,0.5
2.757593135123e-07,14506.791684015,0.16526405233696,0.00040625381597088,0.5
2.794593135123e-07,12742.040898718,0.18577097876207,0.00045666415624894,0.5
2.831593135123e-07,8989.7802124125,0.20212591269388,0.00049686802530453,0.5
2.868593135123e-07,4657.626305858,0.2123966778914,0.00052211572736333,0.5
2.905593135123e-07,1375.0244239899,0.21693673017767,0.00053327613121355,0.5
2.942593135123e-07,461.24979159248,0.21831867342683,0.00053667323851238,0.5
2.979593135123e-07,2375.5690586754,0,0,0.5
3.016593135123e-07,6393.2902619262,0.0065992681474984,1.6222389743113e-05,0.5
3.053593135123e-07,10903.31450376,0.019616346962058,4.8221108559632e-05,0.5
3.090593135123e-07,14139.122761112,0.038462784398855,9.4549617499644e-05,0.5
3.127593135123e-07,14885.820896322,0.060306376496567,0.0001482457632659,0.5
3.164593135123e-07,12903.54951539,0.081220100881013,0.00019965609852756,0.5
3.201593135123e-07,8968.8358077598,0.097680820627509,0.00024012001137539,0.5
3.238593135123e-07,4553.5277186799,0.10785748097024,0.0002651363838993,0.5
3.275593135123e-07,1319.9299233486,0.11227772772247,0.00027600228053706,0.5
3.312593135123e-07,580.64399535351,0.11370806164221,0.00027951834228666,0.5
3.349593135123e-07,2725.7235014182,0.11619636769293,0.00028563512215568,0.5
3.386593135123e-07,6925.4399653234,0.12345964029473,0.00030348977456916,0.5
3.423593135123e-07,11489.355785054,0.13731824728055,0.00033755714670735,0.5
3.460593135123e-07,14637.041753509,0.15698045154012,0.0003858909821537,0.5
3.497593135123e-07,15199.438804417,0.17943479007841,0.00044108847118586,0.5
3.534593135123e-07,13009.621628422,0.20066436477895,0.00049327523298661,0.5
3.571593135123e-07,8916.4055868959,0.21716545434066,0.00053383838333495,0.5
3.608593135123e-07,4439.1463981597,0.22721657565357,0.0005585461545073,0.5
3.645593135123e-07,1272.4879638643,0.23151503744174,0.00056911267807705,0.5
3.682593135123e-07,715.57706328335,0.23301121541987,0.00057279059837727,0.5
3.719593135123e-07,3085.1988113236,0,0,0.5
3.756593135123e-07,7449.2784289251,0.0079280368814664,1.948878289446e-05,0.5
3.793593135123e-07,12046.702531737,0.022600322232842,5.5556347671686e-05,0.5
3.830593135123e-07,15092.059354948,0.043024411653523,0.00010576305716205,0.5
3.867593135123e-07,15466.894846311,0.066022469406307,0.00016229712243438,0.5
3.904593135123e-07,13077.152929947,0.087504148881763,0.00021510361082046,0.5
3.941593135123e-07,8836.3241416634,0.10399579345632,0.00025564354340294,0.5
3.978593135123e-07,4317.1916277417,0.11389486635405,0.00027997754757634,0.5
4.015593135123e-07,1233.5914389167,0.11807227467436,0.00029024649624966,0.5
4.052593135123e-07,864.54276495456,0.11965128851351,0.00029412804452682,0.5
4.089593135123e-07,3450.2345200849,0.12289850360268,0.00030211038250414,0.5
4.126593135123e-07,7960.1137323737,0.13148570349052,0.00032321952677119,0.5
4.163593135123e-07,12571.298759851,0.14693723390392,0.0003612026398818,0.5
4.200593135123e-07,15501.84081735,0.16806451728693,0.00041313794809962,0.5
4.237593135123e-07,15687.844788849,0.19153725088044,0.00047083886647109,0.5
4.274593135123e-07,13107.321314988,0.21320791698687,0.00052410992376319,0.5
4.311593135123e-07,8738.9951439954,0.22964901782757,0.00056452560921231,0.5
4.348593135123e-07,4192.8191484837,0.2393812426278,0.0005884494656534,0.5
4.385593135123e-07,1204.1778378153,0.24344291461975,0.00059843391007805,0.5
4.422593135123e-07,1026.5332821864,0.24512170319444,0.00060256072565005,0.5
4.459593135123e-07,3820.7213490433,0,0,0.5
4.496593135123e-07,8461.0005264827,0.0092429782490834,2.2721185469723e-05,0.5
4.533593135123e-07,13070.188890959,0.025446920780862,6.255388589199e-05,0.5
4.570593135123e-07,15876.496586194,0.047231617337258,0.00011610525402472,0.5
4.607593135123e-07,15873.324326702,0.071125897559885,0.00017484242271358,0.5
4.644593135123e-07,13109.756321081,0.092937984393794,0.00022846112191198,0.5
4.681593135123e-07,8622.2445765937,0.10929305362937,0.00026866532357268,0.5
4.718593135123e-07,4065.7177383237,0.11884176030833,0.00029213805385528,0.5
4.755593135123e-07,1184.3469605289,0.12279285399939,0.00030185067354816,0.5
4.792593135123e-07,1200.5176808424,0.12458765543119,0.00030626267313469,0.5
4.829593135123e-07,4193.7229888864,0.12864725307442,0.00031624201837369,0.5
4.866593135123e-07,8947.4994485775,0.1385370742564,0.000340553279883,0.5
4.903593135123e-07,13538.452876739,0.15545955225739,0.00038215229168483,0.5
4.940593135123e-07,16211.759052989,0.17784896675146,0.00043719018375483,0.5
4.977593135123e-07,16020.514381494,0.20210633109279,0.00049681988960862,0.5
5.014593135123e-07,13083.311128567,0.22400928809515,0.00055066196680223,0.5
5.051593135123e-07,8492.9399551129,0.2402471431357,0.00059057803130704,0.5
5.088593135123e-07,3939.235760985,0.24960334993613,0.00061357755638182,0.5
5.125593135123e-07,1174.5773150766,0.25345190338091,0.00062303811057254,0.5
5.162593135123e-07,1385.6125483457,0,0,0.5
5.199593135123e-07,4569.0059792106,0.0044813268114683,1.1016044275979e-05,0.5
5.236593135123e-07,9421.6060012888,0.015010381575753,3.6898676439903e-05,0.5
5.273593135123e-07,13980.906115754,0.032622644144796,8.0193323856432e-05,0.5
5.310593135123e-07,16514.580548459,0.05557293749855,0.00013660997418523,0.5
5.347593135123e-07,16136.962728791,0.080145835938143,0.00019701532924814,0.5
5.384593135123e-07,13034.500024905,0.10209969537732,0.00025098253534248,0.5
5.421593135123e-07,8353.249793171,0.11819568813541,0.00029054987250592,0.5
5.458593135123e-07,3814.5011368834,0.12735289413035,0.00031306021172652,0.5
5.495593135123e-07,1174.8259593216,0.13110776191641,0.0003222904668545,0.5
5.532593135123e-07,1580.8728919279,0.13318164575788,0.00032738850972931,0.5
5.569593135123e-07,4945.4793428817,0.13809324792276,0.00033946226136371,0.5
5.606593135123e-07,9882.99647094,0.14925286225072,0.00036689494161928,0.5
5.643593135123e-07,14398.505268455,0.16752663482976,0.00041181571983716,0.5
5.680593135123e-07,16787.102350049,0.19099629941129,0.00046950909393139,0.5
5.717593135123e-07,16225.444491492,0.2158408819133,0.00053058230558824,0.5
5.754593135123e-07,12966.037282294,0.23780980726661,0.00058458654686974,0.5
5.791593135123e-07,8205.2488076848,0.25374289375221,0.0006237534261362,0.5
5.828593135123e-07,3692.6008331106,0.26269697743488,0.00064576444797168,0.5
5.865593135123e-07,1185.0743663992,0.26636781823652,0.00065478814709077,0.5
5.902593135123e-07,1785.4253844512,0,0,0.5
5.939593135123e-07,5322.1022515965,0.0053489831483367,1.3148926126688e-05,0.5
5.976593135123e-07,10331.270706069,0.017129398568817,4.210766609837e-05,0.5
6.013593135123e-07,14791.983898407,0.036036657519054,8.8585687116651e-05,0.5
6.050593135123e-07,17031.1335889,0.059986099277651,0.00014745845446817,0.5
6.087593135123e-07,16288.35513429,0.08506168010095,0.00020909950860607,0.5
6.124593135123e-07,12880.272248735,0.10701340569687,0.00026306146926467,0.5
6.161593135123e-07,8050.7089584713,0.12276564353379,0.000301783784498,0.5
6.198593135123e-07,3574.4087703024,0.13151447463411,0.00032329025229623,0.5
6.235593135123e-07,1205.2036543093,0.13511151535262,0.00033213253528176,0.5
6.272593135123e-07,1998.4365516924,0.13752251089885,0.00033805926966287,0.5
6.309593135123e-07,5698.0047728067,0.14331469871085,0.00035229768611319,0.5
6.346593135123e-07,10766.264271269,0.15570537830804,0.00038275658384473,0.5
6.383593135123e-07,15162.269789554,0.17521867447153,0.00043072437185725,0.5
6.420593135123e-07,17248.544196569,0.19961040486121,0.00049068437773158,0.5
6.457593135123e-07,16327.994632833,0.22487943645344,0.00055280097456598,0.5
6.494593135123e-07,12779.356284866,0.24678504660708,0.00060664957376372,0.5
6.531593135123e-07,7891.1929511737,0.26234128855114,0.00064489008985039,0.5
6.568593135123e-07,3460.6544379911,0.27088446185928,0.00066589100752035,0.5
6.605593135123e-07,1235.0537095741,0.27441835789697,0.00067457806759334,0.5
6.642593135123e-07,2219.1248572369,0,0,0.5
6.679593135123e-07,6072.3888560911,0.0062400273903764,1.5339300369657e-05,0.5
6.716593135123e-07,11187.813783316,0.019229710692741,4.7270675252559e-05,0.5
6.753593135123e-07,15510.170663492,0.039322079827719,9.6661946479153e-05,0.5
6.790593135123e-07,17440.977168204,0.064120454662897,0.00015762156996779,0.5
6.827593135123e-07,16346.388433721,0.089548150267593,0.00022012819633135,0.5
6.864593135123e-07,12665.179787567,0.11138167627957,0.00027379959754073,0.5
6.901593135123e-07,7728.0522127197,0.12672921481835,0.00031152707674127,0.5
6.938593135123e-07,3351.9192129493,0.13506777971388,0.00033202502387875,0.5
6.975593135123e-07,1274.2394755754,0.13854933421969,0.00034058341745252,0.5
7.012593135123e-07,2446.0654100911,0.14134916127054,0.00034746598149101,0.5
7.049593135123e-07,6443.2735041141,0.14803909995059,0.00036391125848229,0.5
7.086593135123e-07,11594.097357127,0.16161366451335,0.00039728039457558,0.5
7.123593135123e-07,15834.549392756,0.18225591548437,0.00044802339106287,0.5
7.160593135123e-07,17608.107570529,0.2074241902618,0.00050989230644494,0.5
7.197593135123e-07,16343.839385872,0.23297574650225,0.00057270340831428,0.5
7.234593135123e-07,12538.363463275,0.25471191472246,0.00062613548358521,0.5
7.271593135123e-07,7563.4439588263,0.26984013295219,0.00066332382731609,0.5
7.308593135123e-07,3248.8725357031,0.27797726609964,0.00068332661283097,0.5
7.345593135123e-07,1323.0178285103,0.28141797934994,0.00069178461000477,0.5
7.382593135123e-07,2681.1125579551,0,0,0.5
7.419593135123e-07,6815.4052764631,0.0071468893918265,1.7568557993674e-05,0.5
7.456593135123e-07,11992.974555511,0.021301699885773,5.2364060682825e-05,0.5
7.493593135123e-07,16145.428964563,0.042478099606911,0.00010442010719496,0.5
7.530593135123e-07,17760.379071328,0.067994932618562,0.00016714585206136,0.5
7.567593135123e-07,16329.421765609,0.093650234932424,0.00023021198360969,0.5
7.604593135123e-07,12405.382685979,0.1152754740666,0.00028337137184513,0.5
7.641593135123e-07,7396.2537165271,0.1301777895904,0.00032000439918977,0.5
7.678593135123e-07,3151.4213908977,0.13811575892274,0.0003395175981385,0.5
7.715593135123e-07,1380.1200897198,0.14152610641023,0.00034790094987765,0.5
7.752593135123e-07,2919.1244776037,0.1447616318867,0.0003558545523272,0.5
7.789593135123e-07,7178.9249951509,0.15236122195891,0.00037453594385179,0.5
7.826593135123e-07,12370.831242836,0.16707397750849,0.00041070299289207,0.5
7.863593135123e-07,16427.602091317,0.18874710246711,0.00046398009456025,0.5
7.900593135123e-07,17883.506167069,0.21456895632021,0.00052745564483826,0.5
7.937593135123e-07,16291.816612249,0.24028862073746,0.00059067999198,0.5
7.974593135123e-07,12258.950741027,0.26177535723219,0.00064349891158356,0.5
8.011593135123e-07,7228.994807435,0.27644159529305,0.00067955161084822,0.5
8.048593135123e-07,3060.2027904144,0.28418503962124,0.00069858662640424,0.5
8.085593135123e-07,1446.4048624174,0.28757662240861,0.00070692385056198,0.5
8.122593135123e-07,3163.9644151637,0,0,0.5
8.159593135123e-07,7542.2366117454,0.0080572727688312,1.9806471899782e-05,0.5
8.196593135123e-07,12740.517460718,0.023321667828685,5.7329566933838e-05,0.5
8.233593135123e-07,16696.659224553,0.045475498258487,0.00011178834380159,0.5
8.270593135123e-07,17993.139564591,0.07158234703122,0.00017596447156151,0.5
8.307593135123e-07,16244.167543604,0.097348659614706,0.00023930348971167,0.5
8.344593135123e-07,12108.083869207,0.11868599698296,0.00029175515482537,0.5
8.381593135123e-07,7060.8954534013,0.13311218744157,0.00032721776657219,0.5
8.418593135123e-07,2975.1874196061,0.14066514269014,0.00034578451988726,0.5
8.455593135123e-07,1520.7528683064,0.14404869743201,0.00035410200941989,0.5
8.492593135123e-07,3411.832055125,0.14776086219369,0.00036322729152824,0.5
8.529593135123e-07,7898.487722835,0.15627278265219,0.00038415138311747,0.5
8.566593135123e-07,13092.87352487,0.17207046129998,0.00042298540142572,0.5
8.603593135123e-07,16942.585125512,0.19467454677109,0.00047855099992893,0.5
8.640593135123e-07,18080.038845353,0.22103187311908,0.00054334285427503,0.5
8.677593135123e-07,16179.304332285,0.24681476960771,0.00060672263915366,0.5
8.714593135123e-07,11948.315769644,0.26798305394402,0.00065875873634223,0.5
8.751593135123e-07,6894.8457705066,0.2821640404559,0.00069361858519151,0.5
8.788593135123e-07,2896.9125915272,0.289533121964,0.00071173333816127,0.5
